  # e[MeV/fm3],   pr[MeV/fm3],  n_b[1/fm3],  mu_b[MeV]
 0.145192  0.000264929  0.000154906  939 
 0.586689  0.0008023  0.000624531  940.693 
 2.05564  0.00256359  0.00218403  942.387 
 5.3643  0.00868213  0.00569123  944.08 
 11.7296  0.0248565  0.0124284  945.773 
 22.0686  0.0579453  0.0233533  947.467 
 36.6191  0.113688  0.0387003  949.16 
 53.6048  0.194684  0.0565802  950.854 
 70.8706  0.300799  0.0747169  952.547 
 87.1961  0.430339  0.0918285  954.24 
 98.1918  0.585801  0.103331  955.934 
 108.378  0.761728  0.113969  957.627 
 117.941  0.956303  0.123939  959.32 
 126.813  1.16813  0.133173  961.014 
 135.054  1.39593  0.141736  962.707 
 142.751  1.63857  0.14972  964.4 
 149.983  1.8951  0.157209  966.094 
 156.816  2.16469  0.164272  967.787 
 163.304  2.44662  0.170968  969.48 
 169.491  2.74027  0.177343  971.174 
 175.414  3.04508  0.183436  972.867 
 181.103  3.36057  0.189279  974.561 
 186.584  3.6863  0.194898  976.254 
 191.877  4.02188  0.200316  977.947 
 197  4.36696  0.205552  979.641 
 201.97  4.7212  0.210623  981.334 
 206.799  5.08432  0.215542  983.027 
 211.5  5.45604  0.220323  984.721 
 216.082  5.83611  0.224975  986.414 
 220.555  6.22431  0.229509  988.107 
 224.926  6.62041  0.233932  989.801 
 229.203  7.02423  0.238254  991.494 
 233.391  7.43556  0.242479  993.187 
 237.498  7.85425  0.246614  994.881 
 241.527  8.28012  0.250665  996.574 
 245.483  8.71301  0.254637  998.268 
 249.371  9.1528  0.258534  999.961 
 253.194  9.59933  0.26236  1001.65 
 256.957  10.0525  0.266119  1003.35 
 260.661  10.5121  0.269813  1005.04 
 264.311  10.9781  0.273448  1006.73 
 267.909  11.4504  0.277025  1008.43 
 271.457  11.9289  0.280546  1010.12 
 274.957  12.4133  0.284015  1011.81 
 278.413  12.9038  0.287434  1013.51 
 281.825  13.4001  0.290805  1015.2 
 285.197  13.9022  0.29413  1016.89 
 288.528  14.41  0.29741  1018.59 
 291.822  14.9235  0.300648  1020.28 
 295.079  15.4424  0.303845  1021.97 
 298.302  15.9668  0.307002  1023.67 
 301.491  16.4966  0.310122  1025.36 
 304.647  17.0317  0.313205  1027.05 
 307.773  17.5721  0.316253  1028.75 
 310.868  18.1176  0.319267  1030.44 
 313.934  18.6683  0.322247  1032.13 
 316.973  19.224  0.325196  1033.83 
 319.984  19.7848  0.328114  1035.52 
 322.969  20.3504  0.331002  1037.21 
 325.93  20.921  0.333861  1038.91 
 328.865  21.4964  0.336691  1040.6 
 331.777  22.0766  0.339495  1042.29 
 334.666  22.6615  0.342272  1043.99 
 337.533  23.2512  0.345023  1045.68 
 340.378  23.8454  0.347749  1047.37 
 343.202  24.4443  0.35045  1049.07 
 346.006  25.0477  0.353128  1050.76 
 348.79  25.6556  0.355783  1052.45 
 351.554  26.268  0.358415  1054.15 
 354.3  26.8848  0.361025  1055.84 
 357.028  27.506  0.363614  1057.54 
 359.738  28.1315  0.366181  1059.23 
 362.431  28.7613  0.368729  1060.92 
 365.107  29.3954  0.371256  1062.62 
 367.767  30.0338  0.373764  1064.31 
 370.41  30.6763  0.376253  1066 
 373.039  31.323  0.378724  1067.7 
 375.651  31.9738  0.381176  1069.39 
 378.25  32.6288  0.383611  1071.08 
 380.833  33.2878  0.386028  1072.78 
 383.403  33.9508  0.388428  1074.47 
 385.958  34.6178  0.390811  1076.16 
 388.501  35.2889  0.393178  1077.86 
 391.03  35.9638  0.39553  1079.55 
 393.546  36.6427  0.397865  1081.24 
 396.049  37.3255  0.400185  1082.94 
 398.54  38.0121  0.40249  1084.63 
 401.02  38.7025  0.404781  1086.32 
 403.487  39.3968  0.407056  1088.02 
 405.943  40.0948  0.409318  1089.71 
 408.387  40.7967  0.411566  1091.4 
 410.82  41.5022  0.4138  1093.1 
 413.243  42.2114  0.41602  1094.79 
 415.655  42.9244  0.418227  1096.48 
 418.056  43.6409  0.420422  1098.18 
 420.447  44.3612  0.422603  1099.87 
 422.828  45.085  0.424772  1101.56 
 425.199  45.8124  0.426929  1103.26 
 427.561  46.5434  0.429074  1104.95 
 429.913  47.278  0.431206  1106.64 
 432.256  48.0161  0.433327  1108.34 
 434.59  48.7577  0.435437  1110.03 
 436.915  49.5028  0.437535  1111.72 
 439.231  50.2513  0.439622  1113.42 
 441.538  51.0033  0.441698  1115.11 
 443.837  51.7587  0.443763  1116.8 
 446.128  52.5176  0.445818  1118.5 
 448.41  53.2798  0.447862  1120.19 
 450.685  54.0454  0.449895  1121.88 
 452.951  54.8144  0.451919  1123.58 
 455.21  55.5867  0.453933  1125.27 
 457.461  56.3623  0.455936  1126.96 
 459.704  57.1412  0.45793  1128.66 
 461.941  57.9234  0.459915  1130.35 
 464.17  58.7089  0.461889  1132.04 
 466.392  59.4976  0.463855  1133.74 
 468.606  60.2896  0.465811  1135.43 
 470.814  61.0848  0.467759  1137.12 
 473.015  61.8832  0.469697  1138.82 
 475.21  62.6848  0.471627  1140.51 
 477.398  63.4896  0.473547  1142.2 
 479.579  64.2975  0.47546  1143.9 
 481.754  65.1086  0.477363  1145.59 
 483.923  65.9228  0.479259  1147.28 
 486.085  66.7401  0.481146  1148.98 
 488.242  67.5605  0.483025  1150.67 
 490.392  68.3841  0.484896  1152.36 
 492.537  69.2107  0.486759  1154.06 
 494.675  70.0403  0.488614  1155.75 
 496.808  70.873  0.490462  1157.44 
 498.936  71.7088  0.492301  1159.14 
 501.057  72.5476  0.494134  1160.83 
 503.174  73.3893  0.495958  1162.52 
 505.284  74.2341  0.497776  1164.22 
 507.39  75.0819  0.499586  1165.91 
 509.49  75.9326  0.501389  1167.6 
 511.585  76.7863  0.503184  1169.3 
 513.675  77.643  0.504973  1170.99 
 515.76  78.5026  0.506755  1172.68 
 517.84  79.3651  0.50853  1174.38 
 519.915  80.2305  0.510298  1176.07 
 521.986  81.0988  0.512059  1177.76 
 524.051  81.9701  0.513814  1179.46 
 526.112  82.8442  0.515562  1181.15 
 528.168  83.7211  0.517303  1182.84 
 530.219  84.601  0.519039  1184.54 
 532.267  85.4836  0.520767  1186.23 
 534.309  86.3691  0.52249  1187.92 
 536.347  87.2575  0.524206  1189.62 
 538.381  88.1486  0.525917  1191.31 
 540.411  89.0426  0.527621  1193 
 542.436  89.9394  0.529319  1194.7 
 544.457  90.8389  0.531011  1196.39 
 546.474  91.7412  0.532697  1198.08 
 548.487  92.6463  0.534377  1199.78 
 550.496  93.5542  0.536052  1201.47 
 552.501  94.4648  0.537721  1203.16 
 554.502  95.3781  0.539384  1204.86 
 556.499  96.2942  0.541041  1206.55 
 558.493  97.2129  0.542693  1208.24 
 560.482  98.1344  0.54434  1209.94 
 562.468  99.0586  0.545981  1211.63 
 564.45  99.9855  0.547616  1213.32 
 566.429  100.915  0.549247  1215.02 
 568.404  101.847  0.550872  1216.71 
 570.375  102.782  0.552491  1218.4 
 572.343  103.72  0.554106  1220.1 
 574.308  104.66  0.555715  1221.79 
 576.269  105.603  0.55732  1223.48 
 578.227  106.548  0.558919  1225.18 
 580.181  107.496  0.560513  1226.87 
 582.132  108.447  0.562103  1228.56 
 584.08  109.401  0.563687  1230.26 
 586.024  110.356  0.565267  1231.95 
 587.966  111.315  0.566841  1233.64 
 589.904  112.276  0.568411  1235.34 
 591.839  113.24  0.569977  1237.03 
 593.771  114.206  0.571537  1238.72 
 595.7  115.175  0.573093  1240.42 
 597.626  116.146  0.574644  1242.11 
 599.549  117.12  0.576191  1243.8 
 601.469  118.097  0.577733  1245.5 
 603.386  119.076  0.579271  1247.19 
 605.3  120.057  0.580804  1248.88 
 607.211  121.041  0.582333  1250.58 
 609.12  122.028  0.583857  1252.27 
 611.026  123.017  0.585378  1253.96 
 612.929  124.008  0.586893  1255.66 
 614.829  125.002  0.588405  1257.35 
 616.727  125.999  0.589912  1259.04 
 618.622  126.998  0.591415  1260.74 
 620.514  127.999  0.592914  1262.43 
 622.404  129.003  0.594409  1264.12 
 624.291  130.01  0.5959  1265.82 
 626.176  131.018  0.597387  1267.51 
 628.058  132.03  0.598869  1269.2 
 629.938  133.043  0.600348  1270.9 
 631.815  134.06  0.601823  1272.59 
 633.69  135.078  0.603293  1274.28 
 635.562  136.099  0.60476  1275.98 
 637.432  137.123  0.606223  1277.67 
 639.299  138.148  0.607682  1279.36 
 641.165  139.176  0.609138  1281.06 
 643.027  140.207  0.610589  1282.75 
 644.888  141.24  0.612037  1284.44 
 646.746  142.275  0.613481  1286.14 
 648.603  143.313  0.614922  1287.83 
 650.456  144.353  0.616358  1289.53 
 652.308  145.396  0.617792  1291.22 
 654.158  146.441  0.619221  1292.91 
 656.005  147.488  0.620647  1294.61 
 657.85  148.537  0.622069  1296.3 
 659.693  149.589  0.623488  1297.99 
 661.535  150.643  0.624904  1299.69 
 663.374  151.7  0.626315  1301.38 
 665.211  152.759  0.627724  1303.07 
 667.045  153.82  0.629129  1304.77 
 668.878  154.883  0.63053  1306.46 
 670.709  155.949  0.631928  1308.15 
 672.538  157.017  0.633323  1309.85 
 674.365  158.088  0.634715  1311.54 
 676.191  159.16  0.636103  1313.23 
 678.014  160.235  0.637488  1314.93 
 679.835  161.313  0.63887  1316.62 
 681.655  162.392  0.640248  1318.31 
 683.472  163.474  0.641623  1320.01 
 685.288  164.558  0.642995  1321.7 
 687.102  165.644  0.644364  1323.39 
 688.914  166.733  0.64573  1325.09 
 690.725  167.824  0.647092  1326.78 
 692.534  168.917  0.648452  1328.47 
 694.34  170.012  0.649808  1330.17 
 696.146  171.11  0.651162  1331.86 
 697.949  172.209  0.652512  1333.55 
 699.751  173.311  0.653859  1335.25 
 701.551  174.416  0.655203  1336.94 
 703.35  175.522  0.656545  1338.63 
 705.147  176.631  0.657883  1340.33 
 706.942  177.742  0.659218  1342.02 
 708.736  178.855  0.660551  1343.71 
 710.528  179.97  0.66188  1345.41 
 712.318  181.088  0.663207  1347.1 
 714.107  182.207  0.664531  1348.79 
 715.894  183.329  0.665852  1350.49 
 717.68  184.453  0.66717  1352.18 
 719.465  185.58  0.668485  1353.87 
 721.247  186.708  0.669798  1355.57 
 723.029  187.838  0.671108  1357.26 
 724.809  188.971  0.672415  1358.95 
 726.587  190.106  0.673719  1360.65 
 728.364  191.243  0.675021  1362.34 
 730.14  192.382  0.676319  1364.03 
 731.914  193.524  0.677616  1365.73 
 733.686  194.667  0.678909  1367.42 
 735.458  195.813  0.6802  1369.11 
 737.228  196.961  0.681488  1370.81 
 738.996  198.111  0.682774  1372.5 
 740.763  199.263  0.684057  1374.19 
 742.529  200.417  0.685337  1375.89 
 744.294  201.573  0.686615  1377.58 
 746.057  202.731  0.68789  1379.27 
 747.819  203.892  0.689163  1380.97 
 749.58  205.055  0.690433  1382.66 
 751.339  206.219  0.691701  1384.35 
 753.097  207.386  0.692966  1386.05 
 754.854  208.555  0.694229  1387.74 
 756.61  209.726  0.695489  1389.43 
 758.364  210.899  0.696747  1391.13 
 760.117  212.074  0.698003  1392.82 
 761.869  213.252  0.699255  1394.51 
 763.62  214.431  0.700506  1396.21 
 765.37  215.612  0.701754  1397.9 
 767.118  216.796  0.703  1399.59 
 768.866  217.981  0.704243  1401.29 
 770.612  219.169  0.705485  1402.98 
 772.357  220.359  0.706723  1404.67 
 774.101  221.55  0.70796  1406.37 
 775.843  222.744  0.709194  1408.06 
 777.585  223.94  0.710426  1409.75 
 779.325  225.138  0.711655  1411.45 
 781.065  226.338  0.712882  1413.14 
 782.803  227.54  0.714107  1414.83 
 784.541  228.744  0.71533  1416.53 
 786.277  229.95  0.716551  1418.22 
 788.012  231.158  0.717769  1419.91 
 789.746  232.368  0.718985  1421.61 
 791.479  233.58  0.720199  1423.3 
 793.212  234.794  0.721411  1424.99 
 794.943  236.01  0.72262  1426.69 
 796.673  237.228  0.723828  1428.38 
 798.402  238.449  0.725033  1430.07 
 800.13  239.671  0.726236  1431.77 
 801.857  240.895  0.727437  1433.46 
 803.584  242.121  0.728636  1435.15 
 805.309  243.349  0.729833  1436.85 
 807.033  244.579  0.731027  1438.54 
 808.757  245.811  0.73222  1440.23 
 810.479  247.045  0.73341  1441.93 
 812.201  248.282  0.734599  1443.62 
 813.921  249.52  0.735785  1445.31 
 815.641  250.76  0.73697  1447.01 
 817.36  252.002  0.738152  1448.7 
 819.078  253.246  0.739333  1450.39 
 820.795  254.492  0.740511  1452.09 
 822.511  255.74  0.741687  1453.78 
 824.227  256.989  0.742862  1455.47 
 825.941  258.241  0.744034  1457.17 
 827.655  259.495  0.745205  1458.86 
 829.368  260.751  0.746373  1460.55 
 831.08  262.009  0.74754  1462.25 
 832.791  263.268  0.748705  1463.94 
 834.501  264.53  0.749867  1465.63 
 836.211  265.793  0.751028  1467.33 
 837.92  267.059  0.752187  1469.02 
 839.628  268.326  0.753344  1470.71 
 841.335  269.595  0.754499  1472.41 
 843.041  270.867  0.755653  1474.1 
 844.747  272.14  0.756804  1475.79 
 846.452  273.415  0.757954  1477.49 
 848.156  274.692  0.759101  1479.18 
 849.86  275.971  0.760247  1480.87 
 851.563  277.252  0.761391  1482.57 
 853.265  278.534  0.762534  1484.26 
 854.966  279.819  0.763674  1485.95 
 856.666  281.106  0.764813  1487.65 
 858.366  282.394  0.76595  1489.34 
 860.065  283.685  0.767085  1491.03 
 861.764  284.977  0.768218  1492.73 
 863.462  286.271  0.76935  1494.42 
 865.159  287.567  0.77048  1496.11 
 866.855  288.865  0.771608  1497.81 
 868.551  290.165  0.772734  1499.5 
 870.246  291.467  0.773859  1501.19 
 871.94  292.77  0.774982  1502.89 
 873.634  294.076  0.776103  1504.58 
 875.327  295.383  0.777222  1506.27 
 877.02  296.692  0.77834  1507.97 
 878.712  298.003  0.779456  1509.66 
 880.403  299.316  0.780571  1511.35 
 882.094  300.631  0.781684  1513.05 
 883.784  301.948  0.782795  1514.74 
 885.473  303.266  0.783904  1516.43 
 887.162  304.587  0.785012  1518.13 
 888.85  305.909  0.786118  1519.82 
 890.538  307.233  0.787223  1521.52 
 892.225  308.559  0.788326  1523.21 
 893.911  309.887  0.789427  1524.9 
 895.597  311.217  0.790527  1526.6 
 897.283  312.548  0.791625  1528.29 
 898.968  313.882  0.792721  1529.98 
 900.652  315.217  0.793816  1531.68 
 902.336  316.554  0.79491  1533.37 
 904.019  317.893  0.796002  1535.06 
 905.701  319.234  0.797092  1536.76 
 907.383  320.576  0.798181  1538.45 
 909.065  321.921  0.799268  1540.14 
 910.746  323.267  0.800353  1541.84 
 912.427  324.615  0.801437  1543.53 
 914.107  325.965  0.80252  1545.22 
 915.786  327.316  0.803601  1546.92 
 917.465  328.67  0.80468  1548.61 
 919.144  330.025  0.805758  1550.3 
 920.822  331.382  0.806835  1552 
 922.5  332.741  0.80791  1553.69 
 924.177  334.102  0.808983  1555.38 
 925.853  335.464  0.810056  1557.08 
 927.529  336.829  0.811126  1558.77 
 929.205  338.195  0.812195  1560.46 
 930.88  339.563  0.813263  1562.16 
 932.555  340.932  0.814329  1563.85 
 934.23  342.304  0.815394  1565.54 
 935.904  343.677  0.816457  1567.24 
 937.577  345.052  0.817519  1568.93 
 939.25  346.429  0.81858  1570.62 
 940.923  347.808  0.819639  1572.32 
 942.595  349.188  0.820696  1574.01 
 944.267  350.571  0.821752  1575.7 
 945.938  351.955  0.822807  1577.4 
 947.609  353.34  0.823861  1579.09 
 949.28  354.728  0.824913  1580.78 
 950.95  356.117  0.825963  1582.48 
 952.619  357.508  0.827013  1584.17 
 954.289  358.901  0.82806  1585.86 
 955.958  360.296  0.829107  1587.56 
 957.626  361.692  0.830152  1589.25 
 959.295  363.09  0.831196  1590.94 
 960.963  364.49  0.832238  1592.64 
 962.63  365.892  0.83328  1594.33 
 964.297  367.296  0.834319  1596.02 
 965.964  368.701  0.835358  1597.72 
 967.63  370.108  0.836395  1599.41 
 969.296  371.516  0.837431  1601.1 
 970.962  372.927  0.838465  1602.8 
 972.628  374.339  0.839498  1604.49 
 974.293  375.753  0.84053  1606.18 
 975.957  377.169  0.841561  1607.88 
 977.622  378.586  0.84259  1609.57 
 979.286  380.005  0.843618  1611.26 
 980.949  381.426  0.844645  1612.96 
 982.613  382.849  0.84567  1614.65 
 984.276  384.273  0.846695  1616.34 
 985.939  385.699  0.847718  1618.04 
 987.601  387.127  0.848739  1619.73 
 989.263  388.556  0.84976  1621.42 
 990.925  389.988  0.850779  1623.12 
 992.587  391.421  0.851797  1624.81 
 994.248  392.855  0.852813  1626.5 
 995.909  394.292  0.853829  1628.2 
 997.57  395.73  0.854843  1629.89 
 999.23  397.17  0.855856  1631.58 
 1000.89  398.611  0.856868  1633.28 
 1002.55  400.055  0.857878  1634.97 
 1004.21  401.5  0.858887  1636.66 
 1005.87  402.946  0.859896  1638.36 
 1007.53  404.395  0.860902  1640.05 
 1009.19  405.845  0.861908  1641.74 
 1010.85  407.297  0.862913  1643.44 
 1012.5  408.75  0.863916  1645.13 
 1014.16  410.205  0.864918  1646.82 
 1015.82  411.662  0.865919  1648.52 
 1017.48  413.121  0.866919  1650.21 
 1019.14  414.581  0.867918  1651.9 
 1020.79  416.043  0.868915  1653.6 
 1022.45  417.507  0.869911  1655.29 
 1024.11  418.972  0.870907  1656.98 
 1025.76  420.439  0.871901  1658.68 
 1027.42  421.908  0.872894  1660.37 
 1029.07  423.378  0.873885  1662.06 
 1030.73  424.851  0.874876  1663.76 
 1032.39  426.324  0.875865  1665.45 
 1034.04  427.8  0.876854  1667.14 
 1035.7  429.277  0.877841  1668.84 
 1037.35  430.756  0.878827  1670.53 
 1039.01  432.236  0.879812  1672.22 
 1040.66  433.718  0.880796  1673.92 
 1042.32  435.202  0.881779  1675.61 
 1043.97  436.688  0.88276  1677.3 
 1045.62  438.175  0.883741  1679 
 1047.28  439.664  0.88472  1680.69 
 1048.93  441.154  0.885699  1682.38 
 1050.58  442.646  0.886676  1684.08 
 1052.24  444.14  0.887652  1685.77 
 1053.89  445.636  0.888628  1687.46 
 1055.54  447.133  0.889602  1689.16 
 1057.2  448.631  0.890575  1690.85 
 1058.85  450.132  0.891547  1692.54 
 1060.5  451.634  0.892517  1694.24 
 1062.15  453.138  0.893487  1695.93 
 1063.81  454.643  0.894456  1697.62 
 1065.46  456.15  0.895424  1699.32 
 1067.11  457.659  0.896391  1701.01 
 1068.76  459.169  0.897356  1702.7 
 1070.41  460.681  0.898321  1704.4 
 1072.07  462.195  0.899284  1706.09 
 1073.72  463.71  0.900247  1707.78 
 1075.37  465.227  0.901208  1709.48 
 1077.02  466.745  0.902169  1711.17 
 1078.67  468.265  0.903128  1712.86 
 1080.32  469.787  0.904087  1714.56 
 1081.97  471.31  0.905044  1716.25 
 1083.62  472.836  0.906001  1717.94 
 1085.27  474.362  0.906956  1719.64 
 1086.92  475.89  0.907911  1721.33 
 1088.58  477.42  0.908864  1723.02 
 1090.23  478.952  0.909817  1724.72 
 1091.88  480.485  0.910768  1726.41 
 1093.53  482.02  0.911719  1728.1 
 1095.18  483.556  0.912668  1729.8 
 1096.83  485.094  0.913617  1731.49 
 1098.48  486.634  0.914564  1733.18 
 1100.12  488.175  0.915511  1734.88 
 1101.77  489.718  0.916457  1736.57 
 1103.42  491.262  0.917401  1738.26 
 1105.07  492.809  0.918345  1739.96 
 1106.72  494.356  0.919288  1741.65 
 1108.37  495.906  0.92023  1743.34 
 1110.02  497.456  0.92117  1745.04 
 1111.67  499.009  0.92211  1746.73 
 1113.32  500.563  0.923049  1748.42 
 1114.97  502.119  0.923987  1750.12 
 1116.62  503.676  0.924924  1751.81 
 1118.27  505.235  0.925861  1753.51 
 1119.91  506.795  0.926796  1755.2 
 1121.56  508.358  0.92773  1756.89 
 1123.21  509.921  0.928663  1758.59 
 1124.86  511.487  0.929596  1760.28 
 1126.51  513.053  0.930527  1761.97 
 1128.16  514.622  0.931458  1763.67 
 1129.81  516.192  0.932388  1765.36 
 1131.46  517.764  0.933317  1767.05 
 1133.1  519.337  0.934245  1768.75 
 1134.75  520.912  0.935172  1770.44 
 1136.4  522.488  0.936098  1772.13 
 1138.05  524.066  0.937023  1773.83 
 1139.7  525.646  0.937947  1775.52 
 1141.35  527.227  0.938871  1777.21 
 1142.99  528.809  0.939793  1778.91 
 1144.64  530.394  0.940715  1780.6 
 1146.29  531.98  0.941636  1782.29 
 1147.94  533.567  0.942556  1783.99 
 1149.59  535.156  0.943475  1785.68 
 1151.23  536.747  0.944393  1787.37 
 1152.88  538.339  0.94531  1789.07 
 1154.53  539.933  0.946227  1790.76 
 1156.18  541.528  0.947142  1792.45 
 1157.83  543.125  0.948057  1794.15 
 1159.48  544.723  0.948971  1795.84 
 1161.12  546.323  0.949884  1797.53 
 1162.77  547.925  0.950796  1799.23 
 1164.42  549.528  0.951707  1800.92 
 1166.07  551.132  0.952618  1802.61 
 1167.72  552.739  0.953527  1804.31 
 1169.36  554.346  0.954436  1806 
 1171.01  555.956  0.955344  1807.69 
 1172.66  557.567  0.956251  1809.39 
 1174.31  559.179  0.957158  1811.08 
 1175.96  560.793  0.958063  1812.77 
 1177.61  562.409  0.958968  1814.47 
 1179.25  564.026  0.959871  1816.16 
 1180.9  565.644  0.960774  1817.85 
 1182.55  567.265  0.961677  1819.55 
 1184.2  568.886  0.962578  1821.24 
 1185.85  570.51  0.963479  1822.93 
 1187.5  572.135  0.964378  1824.63 
 1189.14  573.761  0.965277  1826.32 
 1190.79  575.389  0.966175  1828.01 
 1192.44  577.018  0.967073  1829.71 
 1194.09  578.649  0.967969  1831.4 
 1195.74  580.282  0.968865  1833.09 
 1197.39  581.916  0.96976  1834.79 
 1199.04  583.551  0.970654  1836.48 
 1200.68  585.189  0.971548  1838.17 
 1202.33  586.827  0.97244  1839.87 
 1203.98  588.467  0.973332  1841.56 
 1205.63  590.109  0.974223  1843.25 
 1207.28  591.752  0.975113  1844.95 
 1208.93  593.397  0.976003  1846.64 
 1210.58  595.043  0.976892  1848.33 
 1212.23  596.691  0.977779  1850.03 
 1213.88  598.341  0.978667  1851.72 
 1215.52  599.992  0.979553  1853.41 
 1217.17  601.644  0.980439  1855.11 
 1218.82  603.298  0.981324  1856.8 
 1220.47  604.953  0.982208  1858.49 
 1222.12  606.61  0.983091  1860.19 
 1223.77  608.269  0.983974  1861.88 
 1225.42  609.929  0.984856  1863.57 
 1227.07  611.59  0.985737  1865.27 
 1228.72  613.253  0.986617  1866.96 
 1230.37  614.918  0.987497  1868.65 
 1232.02  616.584  0.988376  1870.35 
 1233.67  618.251  0.989254  1872.04 
 1235.32  619.92  0.990131  1873.73 
 1236.97  621.591  0.991008  1875.43 
 1238.62  623.263  0.991884  1877.12 
 1240.27  624.937  0.992759  1878.81 
 1241.92  626.612  0.993634  1880.51 
 1243.57  628.289  0.994508  1882.2 
 1245.22  629.967  0.995381  1883.89 
 1246.88  631.646  0.996253  1885.59 
 1248.53  633.327  0.997125  1887.28 
 1250.18  635.01  0.997995  1888.97 
 1251.83  636.694  0.998866  1890.67 
 1253.48  638.38  0.999735  1892.36 
 1255.13  640.067  1.0006  1894.05 
 1256.78  641.755  1.00147  1895.75 
 1258.43  643.445  1.00234  1897.44 
 1260.09  645.137  1.00321  1899.13 
 1261.74  646.83  1.00407  1900.83 
 1263.39  648.524  1.00494  1902.52 
 1265.04  650.22  1.0058  1904.21 
 1266.69  651.918  1.00667  1905.91 
 1268.35  653.617  1.00753  1907.6 
 1270  655.318  1.00839  1909.29 
 1271.65  657.02  1.00925  1910.99 
 1273.3  658.723  1.01011  1912.68 
 1274.96  660.428  1.01097  1914.37 
 1276.61  662.134  1.01183  1916.07 
 1278.26  663.842  1.01269  1917.76 
 1279.91  665.552  1.01355  1919.45 
 1281.57  667.263  1.01441  1921.15 
 1283.22  668.975  1.01527  1922.84 
 1284.87  670.689  1.01612  1924.53 
 1286.53  672.404  1.01698  1926.23 
 1288.18  674.121  1.01783  1927.92 
 1289.84  675.839  1.01869  1929.61 
 1291.49  677.559  1.01954  1931.31 
 1293.14  679.28  1.02039  1933 
 1294.8  681.003  1.02125  1934.69 
 1296.45  682.727  1.0221  1936.39 
 1298.11  684.452  1.02295  1938.08 
 1299.76  686.179  1.0238  1939.77 
 1301.42  687.908  1.02465  1941.47 
 1303.07  689.638  1.0255  1943.16 
 1304.73  691.369  1.02635  1944.85 
 1306.38  693.102  1.0272  1946.55 
 1308.04  694.837  1.02804  1948.24 
 1309.69  696.573  1.02889  1949.93 
 1311.35  698.31  1.02974  1951.63 
 1313.01  700.049  1.03058  1953.32 
 1314.66  701.789  1.03142  1955.01 
 1316.32  703.531  1.03227  1956.71 
 1317.97  705.274  1.03311  1958.4 
 1319.63  707.018  1.03395  1960.09 
 1321.29  708.764  1.0348  1961.79 
 1322.94  710.512  1.03564  1963.48 
 1324.6  712.261  1.03648  1965.17 
 1326.26  714.011  1.03732  1966.87 
 1327.92  715.763  1.03816  1968.56 
 1329.57  717.516  1.039  1970.25 
 1331.23  719.271  1.03984  1971.95 
 1332.89  721.027  1.04067  1973.64 
 1334.55  722.785  1.04151  1975.33 
 1336.21  724.544  1.04235  1977.03 
 1337.87  726.305  1.04318  1978.72 
 1339.52  728.067  1.04402  1980.41 
 1341.18  729.83  1.04485  1982.11 
 1342.84  731.595  1.04569  1983.8 
 1344.5  733.361  1.04652  1985.49 
 1346.16  735.129  1.04735  1987.19 
 1347.82  736.898  1.04819  1988.88 
 1349.48  738.669  1.04902  1990.58 
 1351.14  740.441  1.04985  1992.27 
 1352.8  742.215  1.05068  1993.96 
 1354.46  743.99  1.05151  1995.66 
 1356.12  745.766  1.05234  1997.35 
 1357.78  747.544  1.05317  1999.04 
 1359.44  749.323  1.054  2000.74 
 1361.1  751.104  1.05482  2002.43 
 1362.77  752.886  1.05565  2004.12 
 1364.43  754.669  1.05648  2005.82 
 1366.09  756.454  1.0573  2007.51 
 1367.75  758.241  1.05813  2009.2 
 1369.41  760.029  1.05895  2010.9 
 1371.08  761.818  1.05978  2012.59 
 1372.74  763.609  1.0606  2014.28 
 1374.4  765.401  1.06142  2015.98 
 1376.06  767.194  1.06224  2017.67 
 1377.73  768.989  1.06307  2019.36 
 1379.39  770.786  1.06389  2021.06 
 1381.05  772.583  1.06471  2022.75 
 1382.72  774.383  1.06553  2024.44 
 1384.38  776.183  1.06635  2026.14 
 1386.05  777.985  1.06717  2027.83 
 1387.71  779.789  1.06799  2029.52 
 1389.38  781.594  1.0688  2031.22 
 1391.04  783.4  1.06962  2032.91 
 1392.71  785.208  1.07044  2034.6 
 1394.37  787.017  1.07125  2036.3 
 1396.04  788.827  1.07207  2037.99 
 1397.7  790.639  1.07288  2039.68 
 1399.37  792.453  1.0737  2041.38 
 1401.03  794.268  1.07451  2043.07 
 1402.7  796.084  1.07533  2044.76 
 1404.37  797.901  1.07614  2046.46 
 1406.03  799.72  1.07695  2048.15 
 1407.7  801.541  1.07776  2049.84 
 1409.37  803.363  1.07857  2051.54 
 1411.04  805.186  1.07938  2053.23 
 1412.7  807.011  1.08019  2054.92 
 1414.37  808.837  1.081  2056.62 
 1416.04  810.664  1.08181  2058.31 
 1417.71  812.493  1.08262  2060 
 1419.38  814.323  1.08343  2061.7 
 1421.05  816.155  1.08424  2063.39 
 1422.72  817.988  1.08504  2065.08 
 1424.39  819.822  1.08585  2066.78 
 1426.06  821.658  1.08666  2068.47 
 1427.73  823.496  1.08746  2070.16 
 1429.4  825.334  1.08827  2071.86 
 1431.07  827.174  1.08907  2073.55 
 1432.74  829.016  1.08987  2075.24 
 1434.41  830.859  1.09068  2076.94 
 1436.08  832.703  1.09148  2078.63 
 1437.75  834.548  1.09228  2080.32 
 1439.42  836.395  1.09308  2082.02 
 1441.09  838.244  1.09388  2083.71 
 1442.77  840.094  1.09469  2085.4 
 1444.44  841.945  1.09549  2087.1 
 1446.11  843.797  1.09629  2088.79 
 1447.78  845.651  1.09708  2090.48 
 1449.46  847.507  1.09788  2092.18 
 1451.13  849.364  1.09868  2093.87 
 1452.8  851.222  1.09948  2095.56 
 1454.48  853.081  1.10028  2097.26 
 1456.15  854.942  1.10107  2098.95 
 1457.83  856.804  1.10187  2100.64 
 1459.5  858.668  1.10266  2102.34 
 1461.18  860.533  1.10346  2104.03 
 1462.85  862.4  1.10425  2105.72 
 1464.53  864.267  1.10505  2107.42 
 1466.2  866.137  1.10584  2109.11 
 1467.88  868.007  1.10663  2110.8 
 1469.56  869.879  1.10743  2112.5 
 1471.23  871.752  1.10822  2114.19 
 1472.91  873.627  1.10901  2115.88 
 1474.59  875.503  1.1098  2117.58 
 1476.26  877.381  1.11059  2119.27 
 1477.94  879.259  1.11138  2120.96 
 1479.62  881.14  1.11217  2122.66 
 1481.3  883.021  1.11296  2124.35 
 1482.98  884.904  1.11375  2126.04 
 1484.66  886.788  1.11454  2127.74 
 1486.34  888.674  1.11533  2129.43 
 1488.01  890.561  1.11611  2131.12 
 1489.69  892.45  1.1169  2132.82 
 1491.37  894.339  1.11769  2134.51 
 1493.05  896.231  1.11847  2136.2 
 1494.73  898.123  1.11926  2137.9 
 1496.42  900.017  1.12004  2139.59 
 1498.1  901.912  1.12083  2141.28 
 1499.78  903.809  1.12161  2142.98 
 1501.46  905.707  1.12239  2144.67 
 1503.14  907.606  1.12318  2146.36 
 1504.82  909.507  1.12396  2148.06 
 1506.51  911.409  1.12474  2149.75 
 1508.19  913.312  1.12552  2151.44 
 1509.87  915.217  1.1263  2153.14 
 1511.56  917.123  1.12709  2154.83 
 1513.24  919.031  1.12787  2156.52 
 1514.92  920.94  1.12865  2158.22 
 1516.61  922.85  1.12942  2159.91 
 1518.29  924.761  1.1302  2161.6 
 1519.98  926.674  1.13098  2163.3 
 1521.66  928.589  1.13176  2164.99 
 1523.35  930.504  1.13254  2166.68 
 1525.03  932.421  1.13331  2168.38 
 1526.72  934.34  1.13409  2170.07 
 1528.4  936.259  1.13487  2171.76 
 1530.09  938.18  1.13564  2173.46 
 1531.78  940.103  1.13642  2175.15 
 1533.47  942.027  1.13719  2176.84 
 1535.15  943.952  1.13797  2178.54 
 1536.84  945.878  1.13874  2180.23 
 1538.53  947.806  1.13951  2181.92 
 1540.22  949.735  1.14029  2183.62 
 1541.91  951.666  1.14106  2185.31 
 1543.59  953.598  1.14183  2187 
 1545.28  955.531  1.1426  2188.7 
 1546.97  957.465  1.14338  2190.39 
 1548.66  959.401  1.14415  2192.08 
 1550.35  961.338  1.14492  2193.78 
 1552.04  963.277  1.14569  2195.47 
 1553.74  965.217  1.14646  2197.16 
 1555.43  967.158  1.14722  2198.86 
 1557.12  969.101  1.14799  2200.55 
 1558.81  971.045  1.14876  2202.24 
 1560.5  972.99  1.14953  2203.94 
 1562.19  974.936  1.1503  2205.63 
 1563.89  976.884  1.15106  2207.32 
 1565.58  978.834  1.15183  2209.02 
 1567.27  980.784  1.1526  2210.71 
 1568.97  982.736  1.15336  2212.4 
 1570.66  984.69  1.15413  2214.1 
 1572.36  986.644  1.15489  2215.79 
 1574.05  988.6  1.15566  2217.48 
 1575.74  990.557  1.15642  2219.18 
 1577.44  992.516  1.15718  2220.87 
 1579.14  994.476  1.15795  2222.57 
 1580.83  996.437  1.15871  2224.26 
 1582.53  998.4  1.15947  2225.95 
 1584.22  1000.36  1.16023  2227.65 
 1585.92  1002.33  1.16099  2229.34 
 1587.62  1004.3  1.16176  2231.03 
 1589.32  1006.26  1.16252  2232.73 
 1591.01  1008.23  1.16328  2234.42 
 1592.71  1010.2  1.16404  2236.11 
 1594.41  1012.18  1.1648  2237.81 
 1596.11  1014.15  1.16555  2239.5 
 1597.81  1016.12  1.16631  2241.19 
 1599.51  1018.1  1.16707  2242.89 
 1601.21  1020.08  1.16783  2244.58 
 1602.91  1022.05  1.16859  2246.27 
 1604.61  1024.03  1.16934  2247.97 
 1606.31  1026.02  1.1701  2249.66 
 1608.01  1028  1.17086  2251.35 
 1609.71  1029.98  1.17161  2253.05 
 1611.41  1031.97  1.17237  2254.74 
 1613.12  1033.95  1.17312  2256.43 
 1614.82  1035.94  1.17388  2258.13 
 1616.52  1037.93  1.17463  2259.82 
 1618.23  1039.92  1.17538  2261.51 
 1619.93  1041.91  1.17614  2263.21 
 1621.63  1043.91  1.17689  2264.9 
 1623.34  1045.9  1.17764  2266.59 
 1625.04  1047.9  1.1784  2268.29 
 1626.75  1049.89  1.17915  2269.98 
 1628.45  1051.89  1.1799  2271.67 
 1630.16  1053.89  1.18065  2273.37 
 1631.86  1055.89  1.1814  2275.06 
 1633.57  1057.89  1.18215  2276.75 
 1635.28  1059.9  1.1829  2278.45 
 1636.98  1061.9  1.18365  2280.14 
 1638.69  1063.91  1.1844  2281.83 
 1640.4  1065.92  1.18515  2283.53 
 1642.11  1067.92  1.1859  2285.22 
 1643.82  1069.93  1.18664  2286.91 
 1645.52  1071.95  1.18739  2288.61 
 1647.23  1073.96  1.18814  2290.3 
 1648.94  1075.97  1.18888  2291.99 
 1650.65  1077.99  1.18963  2293.69 
 1652.36  1080  1.19038  2295.38 
 1654.07  1082.02  1.19112  2297.07 
 1655.78  1084.04  1.19187  2298.77 
 1657.5  1086.06  1.19261  2300.46 
 1659.21  1088.08  1.19336  2302.15 
 1660.92  1090.11  1.1941  2303.85 
 1662.63  1092.13  1.19485  2305.54 
 1664.34  1094.16  1.19559  2307.23 
 1666.06  1096.18  1.19633  2308.93 
 1667.77  1098.21  1.19707  2310.62 
 1669.48  1100.24  1.19782  2312.31 
 1671.2  1102.27  1.19856  2314.01 
 1672.91  1104.31  1.1993  2315.7 
 1674.63  1106.34  1.20004  2317.39 
 1676.34  1108.37  1.20078  2319.09 
 1678.06  1110.41  1.20152  2320.78 
 1679.77  1112.45  1.20226  2322.47 
 1681.49  1114.49  1.203  2324.17 
 1683.21  1116.53  1.20374  2325.86 
 1684.92  1118.57  1.20448  2327.55 
 1686.64  1120.61  1.20522  2329.25 
 1688.36  1122.65  1.20596  2330.94 
 1690.08  1124.7  1.20669  2332.63 
 1691.79  1126.75  1.20743  2334.33 
 1693.51  1128.79  1.20817  2336.02 
 1695.23  1130.84  1.20891  2337.71 
 1696.95  1132.89  1.20964  2339.41 
 1698.67  1134.94  1.21038  2341.1 
 1700.39  1137  1.21111  2342.79 
 1702.11  1139.05  1.21185  2344.49 
 1703.83  1141.11  1.21258  2346.18 
 1705.56  1143.16  1.21332  2347.87 
 1707.28  1145.22  1.21405  2349.57 
 1709  1147.28  1.21479  2351.26 
 1710.72  1149.34  1.21552  2352.95 
 1712.45  1151.4  1.21625  2354.65 
 1714.17  1153.47  1.21699  2356.34 
 1715.89  1155.53  1.21772  2358.03 
 1717.62  1157.6  1.21845  2359.73 
 1719.34  1159.66  1.21918  2361.42 
 1721.07  1161.73  1.21991  2363.11 
 1722.79  1163.8  1.22065  2364.81 
 1724.52  1165.87  1.22138  2366.5 
 1726.24  1167.95  1.22211  2368.19 
 1727.97  1170.02  1.22284  2369.89 
 1729.69  1172.09  1.22357  2371.58 
 1731.42  1174.17  1.2243  2373.27 
 1733.15  1176.25  1.22503  2374.97 
 1734.88  1178.33  1.22575  2376.66 
 1736.61  1180.41  1.22648  2378.35 
 1738.33  1182.49  1.22721  2380.05 
 1740.06  1184.57  1.22794  2381.74 
 1741.79  1186.65  1.22867  2383.43 
 1743.52  1188.74  1.22939  2385.13 
 1745.25  1190.82  1.23012  2386.82 
 1746.98  1192.91  1.23085  2388.51 
 1748.71  1195  1.23157  2390.21 
 1750.44  1197.09  1.2323  2391.9 
 1752.18  1199.18  1.23302  2393.59 
 1753.91  1201.27  1.23375  2395.29 
 1755.64  1203.37  1.23447  2396.98 
 1757.37  1205.46  1.2352  2398.67 
 1759.11  1207.56  1.23592  2400.37 
 1760.84  1209.66  1.23665  2402.06 
 1762.57  1211.76  1.23737  2403.75 
 1764.31  1213.86  1.23809  2405.45 
 1766.04  1215.96  1.23881  2407.14 
 1767.78  1218.06  1.23954  2408.83 
 1769.51  1220.16  1.24026  2410.53 
 1771.25  1222.27  1.24098  2412.22 
 1772.99  1224.38  1.2417  2413.91 
 1774.72  1226.48  1.24242  2415.61 
 1776.46  1228.59  1.24314  2417.3 
 1778.2  1230.7  1.24386  2418.99 
 1779.94  1232.81  1.24458  2420.69 
 1781.67  1234.93  1.2453  2422.38 
 1783.41  1237.04  1.24602  2424.07 
 1785.15  1239.16  1.24674  2425.77 
 1786.89  1241.27  1.24746  2427.46 
 1788.63  1243.39  1.24818  2429.15 
 1790.37  1245.51  1.2489  2430.85 
 1792.11  1247.63  1.24962  2432.54 
 1793.85  1249.75  1.25033  2434.23 
 1795.6  1251.88  1.25105  2435.93 
 1797.34  1254  1.25177  2437.62 
 1799.08  1256.13  1.25248  2439.31 
 1800.82  1258.25  1.2532  2441.01 
 1802.57  1260.38  1.25392  2442.7 
 1804.31  1262.51  1.25463  2444.39 
 1806.05  1264.64  1.25535  2446.09 
 1807.8  1266.77  1.25606  2447.78 
 1809.54  1268.9  1.25678  2449.47 
 1811.29  1271.04  1.25749  2451.17 
 1813.03  1273.17  1.25821  2452.86 
 1814.78  1275.31  1.25892  2454.56 
 1816.52  1277.45  1.25963  2456.25 
 1818.27  1279.59  1.26035  2457.94 
 1820.02  1281.73  1.26106  2459.64 
 1821.77  1283.87  1.26177  2461.33 
 1823.51  1286.01  1.26248  2463.02 
 1825.26  1288.16  1.2632  2464.72 
 1827.01  1290.3  1.26391  2466.41 
 1828.76  1292.45  1.26462  2468.1 
 1830.51  1294.6  1.26533  2469.8 
 1832.26  1296.75  1.26604  2471.49 
 1834.01  1298.9  1.26675  2473.18 
 1835.76  1301.05  1.26746  2474.88 
 1837.51  1303.2  1.26817  2476.57 
 1839.26  1305.36  1.26888  2478.26 
 1841.02  1307.51  1.26959  2479.96 
 1842.77  1309.67  1.2703  2481.65 
 1844.52  1311.83  1.27101  2483.34 
 1846.28  1313.99  1.27172  2485.04 
 1848.03  1316.15  1.27243  2486.73 
 1849.78  1318.31  1.27313  2488.42 
 1851.54  1320.47  1.27384  2490.12 
 1853.29  1322.64  1.27455  2491.81 
 1855.05  1324.8  1.27525  2493.5 
 1856.8  1326.97  1.27596  2495.2 
 1858.56  1329.14  1.27667  2496.89 
 1860.32  1331.31  1.27737  2498.58 
 1862.07  1333.48  1.27808  2500.28 
 1863.83  1335.65  1.27878  2501.97 
 1865.59  1337.82  1.27949  2503.66 
 1867.35  1339.99  1.28019  2505.36 
 1869.11  1342.17  1.2809  2507.05 
 1870.87  1344.35  1.2816  2508.74 
 1872.62  1346.52  1.28231  2510.44 
 1874.38  1348.7  1.28301  2512.13 
 1876.15  1350.88  1.28371  2513.82 
 1877.91  1353.07  1.28442  2515.52 
 1879.67  1355.25  1.28512  2517.21 
 1881.43  1357.43  1.28582  2518.9 
 1883.19  1359.62  1.28652  2520.6 
 1884.95  1361.8  1.28723  2522.29 
 1886.72  1363.99  1.28793  2523.98 
 1888.48  1366.18  1.28863  2525.68 
 1890.24  1368.37  1.28933  2527.37 
 1892.01  1370.56  1.29003  2529.06 
 1893.77  1372.76  1.29073  2530.76 
 1895.54  1374.95  1.29143  2532.45 
 1897.3  1377.14  1.29213  2534.14 
 1899.07  1379.34  1.29283  2535.84 
 1900.84  1381.54  1.29353  2537.53 
 1902.6  1383.74  1.29423  2539.22 
 1904.37  1385.94  1.29493  2540.92 
 1906.14  1388.14  1.29563  2542.61 
 1907.91  1390.34  1.29633  2544.3 
 1909.67  1392.54  1.29702  2546 
 1911.44  1394.75  1.29772  2547.69 
 1913.21  1396.96  1.29842  2549.38 
 1914.98  1399.16  1.29912  2551.08 
 1916.75  1401.37  1.29981  2552.77 
 1918.52  1403.58  1.30051  2554.46 
 1920.29  1405.79  1.30121  2556.16 
 1922.07  1408.01  1.3019  2557.85 
 1923.84  1410.22  1.3026  2559.54 
 1925.61  1412.43  1.30329  2561.24 
 1927.38  1414.65  1.30399  2562.93 
 1929.16  1416.87  1.30468  2564.62 
 1930.93  1419.09  1.30538  2566.32 
 1932.7  1421.31  1.30607  2568.01 
 1934.48  1423.53  1.30677  2569.7 
 1936.25  1425.75  1.30746  2571.4 
 1938.03  1427.97  1.30816  2573.09 
 1939.81  1430.2  1.30885  2574.78 
 1941.58  1432.42  1.30954  2576.48 
 1943.36  1434.65  1.31023  2578.17 
 1945.14  1436.88  1.31093  2579.86 
 1946.91  1439.11  1.31162  2581.56 
 1948.69  1441.34  1.31231  2583.25 
 1950.47  1443.57  1.313  2584.94 
 1952.25  1445.8  1.31369  2586.64 
 1954.03  1448.04  1.31439  2588.33 
 1955.81  1450.27  1.31508  2590.02 
 1957.59  1452.51  1.31577  2591.72 
 1959.37  1454.75  1.31646  2593.41 
 1961.15  1456.99  1.31715  2595.1 
 1962.93  1459.23  1.31784  2596.8 
 1964.71  1461.47  1.31853  2598.49 
 1966.5  1463.71  1.31922  2600.18 
 1968.28  1465.95  1.31991  2601.88 
 1970.06  1468.2  1.3206  2603.57 
 1971.85  1470.45  1.32128  2605.26 
 1973.63  1472.69  1.32197  2606.96 
 1975.42  1474.94  1.32266  2608.65 
 1977.2  1477.19  1.32335  2610.34 
 1978.99  1479.44  1.32404  2612.04 
 1980.77  1481.7  1.32472  2613.73 
 1982.56  1483.95  1.32541  2615.42 
 1984.35  1486.21  1.3261  2617.12 
 1986.13  1488.46  1.32678  2618.81 
 1987.92  1490.72  1.32747  2620.5 
 1989.71  1492.98  1.32816  2622.2 
 1991.5  1495.24  1.32884  2623.89 
 1993.29  1497.5  1.32953  2625.58 
 1995.08  1499.76  1.33021  2627.28 
 1996.87  1502.02  1.3309  2628.97 
 1998.66  1504.29  1.33158  2630.66 
 2000.45  1506.55  1.33227  2632.36 
 2002.24  1508.82  1.33295  2634.05 
 2004.03  1511.09  1.33364  2635.74 
 2005.82  1513.36  1.33432  2637.44 
 2007.62  1515.63  1.335  2639.13 
 2009.41  1517.9  1.33569  2640.82 
 2011.2  1520.17  1.33637  2642.52 
 2013  1522.45  1.33705  2644.21 
 2014.79  1524.72  1.33773  2645.9 
 2016.59  1527  1.33842  2647.6 
 2018.38  1529.28  1.3391  2649.29 
 2020.18  1531.56  1.33978  2650.98 
 2021.97  1533.84  1.34046  2652.68 
 2023.77  1536.12  1.34114  2654.37 
 2025.57  1538.4  1.34182  2656.06 
 2027.37  1540.69  1.3425  2657.76 
 2029.16  1542.97  1.34319  2659.45 
 2030.96  1545.26  1.34387  2661.14 
 2032.76  1547.55  1.34455  2662.84 
 2034.56  1549.83  1.34523  2664.53 
 2036.36  1552.12  1.34591  2666.22 
 2038.16  1554.41  1.34658  2667.92 
 2039.96  1556.71  1.34726  2669.61 
 2041.76  1559  1.34794  2671.3 
 2043.57  1561.3  1.34862  2673 
 2045.37  1563.59  1.3493  2674.69 
 2047.17  1565.89  1.34998  2676.38 
 2048.97  1568.19  1.35066  2678.08 
 2050.78  1570.49  1.35133  2679.77 
 2052.58  1572.79  1.35201  2681.46 
 2054.39  1575.09  1.35269  2683.16 
 2056.19  1577.39  1.35336  2684.85 
 2058  1579.7  1.35404  2686.55 
 2059.8  1582  1.35472  2688.24 
 2061.61  1584.31  1.35539  2689.93 
 2063.42  1586.62  1.35607  2691.63 
 2065.22  1588.92  1.35675  2693.32 
 2067.03  1591.23  1.35742  2695.01 
 2068.84  1593.55  1.3581  2696.71 
 2070.65  1595.86  1.35877  2698.4 
 2072.46  1598.17  1.35945  2700.09 
 2074.27  1600.49  1.36012  2701.79 
 2076.08  1602.8  1.3608  2703.48 
 2077.89  1605.12  1.36147  2705.17 
 2079.7  1607.44  1.36214  2706.87 
 2081.51  1609.76  1.36282  2708.56 
 2083.32  1612.08  1.36349  2710.25 
 2085.14  1614.4  1.36416  2711.95 
 2086.95  1616.73  1.36484  2713.64 
 2088.76  1619.05  1.36551  2715.33 
 2090.58  1621.38  1.36618  2717.03 
 2092.39  1623.7  1.36685  2718.72 
 2094.2  1626.03  1.36753  2720.41 
 2096.02  1628.36  1.3682  2722.11 
 2097.84  1630.69  1.36887  2723.8 
 2099.65  1633.02  1.36954  2725.49 
 2101.47  1635.35  1.37021  2727.19 
 2103.29  1637.69  1.37088  2728.88 
 2105.1  1640.02  1.37155  2730.57 
 2106.92  1642.36  1.37222  2732.27 
 2108.74  1644.7  1.37289  2733.96 
 2110.56  1647.04  1.37356  2735.65 
 2112.38  1649.38  1.37423  2737.35 
 2114.2  1651.72  1.3749  2739.04 
 2116.02  1654.06  1.37557  2740.73 
 2117.84  1656.4  1.37624  2742.43 
 2119.66  1658.75  1.37691  2744.12 
 2121.48  1661.09  1.37758  2745.81 
 2123.3  1663.44  1.37825  2747.51 
 2125.13  1665.79  1.37892  2749.2 
 2126.95  1668.14  1.37958  2750.89 
 2128.77  1670.49  1.38025  2752.59 
 2130.6  1672.84  1.38092  2754.28 
 2132.42  1675.19  1.38159  2755.97 
 2134.25  1677.55  1.38225  2757.67 
 2136.07  1679.9  1.38292  2759.36 
 2137.9  1682.26  1.38359  2761.05 
 2139.73  1684.62  1.38425  2762.75 
 2141.55  1686.97  1.38492  2764.44 
 2143.38  1689.33  1.38559  2766.13 
 2145.21  1691.69  1.38625  2767.83 
 2147.04  1694.06  1.38692  2769.52 
 2148.87  1696.42  1.38758  2771.21 
 2150.69  1698.79  1.38825  2772.91 
 2152.52  1701.15  1.38891  2774.6 
 2154.35  1703.52  1.38958  2776.29 
 2156.19  1705.89  1.39024  2777.99 
 2158.02  1708.26  1.39091  2779.68 
 2159.85  1710.63  1.39157  2781.37 
 2161.68  1713  1.39223  2783.07 
 2163.51  1715.37  1.3929  2784.76 
 2165.35  1717.74  1.39356  2786.45 
 2167.18  1720.12  1.39422  2788.15 
 2169.01  1722.5  1.39489  2789.84 
 2170.85  1724.87  1.39555  2791.53 
 2172.68  1727.25  1.39621  2793.23 
 2174.52  1729.63  1.39687  2794.92 
 2176.36  1732.01  1.39754  2796.61 
 2178.19  1734.4  1.3982  2798.31 
 2180.03  1736.78  1.39886  2800 
